Time	Lead II
0	0
0.01	0
0.02	0
0.03	0
0.04	0
0.05	0
0.06	0
0.07	0
0.08	0
0.09	0
0.1	0
0.11	0
0.12	0
0.13	0
0.14	0
0.15	0
0.16	0
0.17	0
0.18	0
0.19	0
0.2	0
0.21	0
0.22	0
0.23	0
0.24	0
0.25	0
0.26	0
0.27	0
0.28	0
0.29	0
0.3	0
0.31	0
0.32	0
0.33	0
0.34	0
0.35	0
0.36	0
0.37	0
0.38	0
0.39	0
0.4	0
0.41	0
0.42	0
0.43	0
0.44	0
0.45	0
0.46	0
0.47	0
0.48	0
0.49	0
0.5	0
0.51	0
0.52	0
0.53	0
0.54	0
0.55	0
0.56	0
0.57	0
0.58	0
0.59	0
0.6	0
0.61	0
0.62	0
0.63	0
0.64	0
0.65	0
0.66	0
0.67	0
0.68	0
0.69	0
0.7	0
0.71	0
0.72	0
0.73	0
0.74	0
0.75	0
0.76	0
0.77	0
0.78	0
0.79	0
0.8	0
0.81	0
0.82	0
0.83	0
0.84	0
0.85	0
0.86	0
0.87	0
0.88	0
0.89	0
0.9	0
0.91	0
0.92	0
0.93	0
0.94	0
0.95	0
0.96	0
0.97	0
0.98	0
0.99	0
1	0
1.01	0
1.02	0
1.03	0
1.04	0
1.05	0
1.06	0
1.07	0
1.08	0
1.09	0
1.1	0
1.11	0
1.12	0
1.13	0
1.14	0
1.15	0
1.16	0
1.17	0
1.18	0
1.19	0
1.2	0
1.21	0
1.22	0
1.23	0
1.24	0
1.25	0
1.26	0
1.27	0
1.28	0
1.29	0
1.3	0
1.31	0
1.32	0
1.33	0
1.34	0
1.35	0
1.36	0
1.37	0
1.38	0
1.39	0
1.4	0
1.41	0
1.42	0
1.43	0
1.44	0
1.45	0
1.46	0
1.47	0
1.48	0
1.49	0
1.5	0
1.51	0
1.52	0
1.53	0
1.54	0
1.55	0
1.56	0
1.57	0
1.58	0
1.59	0
1.6	0
1.61	0
1.62	0
1.63	0
1.64	0
1.65	0
1.66	0
1.67	0
1.68	0
1.69	0
1.7	0
1.71	0
1.72	0
1.73	0
1.74	0
1.75	0
1.76	0
1.77	0
1.78	0
1.79	0
1.8	0
1.81	0
1.82	0
1.83	0
1.84	0
1.85	0
1.86	0
1.87	0
1.88	0
1.89	0
1.9	0
1.91	0
1.92	0
1.93	0
1.94	0
1.95	0
1.96	0
1.97	0
1.98	0
1.99	0
2	0.0298267
2.01	0.177446
2.02	0.0580147
2.03	0.100501
2.04	0.139289
2.05	0.135703
2.06	0.210058
2.07	0.138848
2.08	0.148984
2.09	0.104679
2.1	0.0228992
2.11	0.0396826
2.12	-0.0511067
2.13	-0.0225814
2.14	-0.0411103
2.15	-0.0887465
2.16	-0.0364652
2.17	-0.105113
2.18	-0.0652478
2.19	-0.067239
2.2	-0.0986497
2.21	-0.0414261
2.22	-0.103446
2.23	-0.0566769
2.24	-0.0627474
2.25	-0.0965889
2.26	-0.0338207
2.27	-0.0888157
2.28	-0.0348252
2.29	-0.0452687
2.3	-0.0837542
2.31	-0.0250782
2.32	-0.0926697
2.33	-0.0432531
2.34	-0.0373128
2.35	-0.0571925
2.36	-0.00505486
2.37	-0.0803892
2.38	-0.0424277
2.39	-0.0633005
2.4	-0.0937259
2.41	-0.0257194
2.42	-0.0862691
2.43	-0.0400297
2.44	-0.04889
2.45	-0.0735947
2.46	-0.0162713
2.47	-0.0885235
2.48	-0.0434291
2.49	-0.0537313
2.5	-0.0692147
2.51	0.00169815
2.52	-0.0458732
2.53	0.0226082
2.54	0.028106
2.55	0.0220919
2.56	0.0824703
2.57	-0.00231394
2.58	0.0203729
2.59	-0.0256206
2.6	-0.0782691
2.61	-0.0375336
2.62	-0.103762
2.63	-0.0291807
2.64	0.0564083
2.65	0.233811
2.66	0.408564
2.67	0.201593
2.68	-0.000765263
2.69	-0.140013
2.7	-0.140838
2.71	-0.0389424
2.72	-0.0806209
2.73	-0.0153964
2.74	-0.0405982
2.75	-0.136772
2.76	-0.0435802
2.77	-0.0515457
2.78	0.0112172
2.79	0.024749
2.8	-0.00905689
2.81	0.0528878
2.82	-0.000671167
2.83	0.0504594
2.84	0.0693874
2.85	0.0551835
2.86	0.156997
2.87	0.127724
2.88	0.189756
2.89	0.209201
2.9	0.17432
2.91	0.223292
2.92	0.133531
2.93	0.137863
2.94	0.102764
2.95	0.022874
2.96	0.0500927
2.97	-0.0182939
2.98	0.0174555
2.99	-0.00181137
3	-0.0542033
3.01	-0.00178337
3.02	-0.070049
3.03	-0.0267834
3.04	-0.0244595
3.05	-0.0597245
3.06	0.00217678
3.07	-0.0575274
3.08	-0.0116995
3.09	-0.0118533
3.1	-0.0463791
3.11	0.00650412
3.12	-0.0626159
3.13	-0.0167123
3.14	-0.0145718
3.15	-0.0401097
3.16	0.0249241
3.17	-0.0402025
3.18	0.00121772
3.19	-0.00837338
3.2	-0.0500024
3.21	0.00199389
3.22	-0.0627113
3.23	-0.018421
3.24	-0.025149
3.25	-0.0560738
3.26	-0.00471289
3.27	-0.0726724
3.28	-0.0243875
3.29	-0.0332479
3.3	-0.0670723
3.31	-0.0167269
3.32	-0.0858685
3.33	-0.0339278
3.34	-0.0365985
3.35	-0.0691844
3.36	-0.0153859
3.37	-0.0775623
3.38	-0.0186462
3.39	-0.00743439
3.4	-0.0142751
3.41	0.0632823
3.42	0.0143407
3.43	0.0544055
3.44	0.00997402
3.45	-0.0508028
3.46	-0.0214534
3.47	-0.106239
3.48	-0.0569725
3.49	-0.0633818
3.5	-0.0409606
3.51	0.163945
3.52	0.294898
3.53	0.370362
3.54	0.130275
3.55	-0.128732
3.56	-0.129689
3.57	-0.14395
3.58	-0.045225
3.59	-0.0448205
3.6	-0.0629721
3.61	-0.00287695
3.62	-0.0685439
3.63	-0.0207323
3.64	-0.101682
3.65	-0.214461
3.66	-0.0744515
3.67	-0.046691
3.68	0.0284492
3.69	0.0431251
3.7	0.00172928
3.71	0.0822622
3.72	0.0537962
3.73	0.121484
3.74	0.155141
3.75	0.142204
3.76	0.224308
3.77	0.169543
3.78	0.194561
3.79	0.167501
3.8	0.0862093
3.81	0.112121
3.82	0.0165477
3.83	0.0252022
3.84	0.00342846
3.85	-0.0531514
3.86	-9.19417e-05
3.87	-0.0642779
3.88	-0.029195
3.89	-0.0325863
3.9	-0.0749111
3.91	-0.01293
3.92	-0.0693449
3.93	-0.0262008
3.94	-0.0355078
3.95	-0.0752198
3.96	-0.00362627
3.97	-0.0622051
3.98	-0.0152254
3.99	-0.0113869
4	-0.0541185
4.01	0.00121065
4.02	-0.0621088
4.03	-0.0181158
4.04	-0.0203666
4.05	-0.0578197
4.06	0.000373677
4.07	-0.066988
4.08	-0.023235
4.09	-0.0299277
4.1	-0.068884
4.11	-0.0164364
4.12	-0.0789514
4.13	-0.0254469
4.14	-0.0324536
4.15	-0.0749457
4.16	-0.0157094
4.17	-0.0760653
4.18	-0.036122
4.19	-0.0437875
4.2	-0.0838218
4.21	-0.0209974
4.22	-0.0694008
4.23	-0.0217206
4.24	-0.0308632
4.25	-0.0644509
4.26	-0.00515243
4.27	-0.0656061
4.28	0.00152549
4.29	0.0212123
4.3	0.012036
4.31	0.0797065
4.32	0.00833846
4.33	0.0427959
4.34	0.00677682
4.35	-0.0553357
4.36	-0.0245314
4.37	-0.0998678
4.38	-0.0518855
4.39	-0.0386284
4.4	0.0606283
4.41	0.322266
4.42	0.332551
4.43	0.208198
4.44	-0.048647
4.45	-0.179494
4.46	-0.0935953
4.47	-0.105654
4.48	-0.0248466
4.49	-0.0243526
4.5	-0.0468691
4.51	0.00930272
4.52	-0.056942
4.53	-0.00268802
4.54	-0.00554661
4.55	-0.0211715
4.56	0.0350536
4.57	-0.0341337
4.58	-0.0529265
4.59	-0.00327449
4.6	0.0114263
4.61	0.118469
4.62	0.0838545
4.63	0.137546
4.64	0.165733
4.65	0.139402
4.66	0.212324
4.67	0.155729
4.68	0.175862
4.69	0.14099
4.7	0.052924
4.71	0.08016
4.72	-0.00401927
4.73	0.0132165
4.74	-0.00837791
4.75	-0.0620979
4.76	0.00518688
4.77	-0.0586082
4.78	-0.0307735
4.79	-0.0343688
4.8	-0.083829
4.81	-0.0234753
4.82	-0.0818789
4.83	-0.0430293
4.84	-0.0358073
4.85	-0.0677337
4.86	0.00596754
4.87	-0.0509541
4.88	-0.0164762
4.89	-0.0220364
4.9	-0.0615187
4.91	0.010166
4.92	-0.0444571
4.93	-0.00633329
4.94	-0.0152474
4.95	-0.0624748
4.96	-0.0054208
4.97	-0.0646652
4.98	-0.0226646
4.99	-0.0206684
5	-0.0536097
5.01	0.0088654
5.02	-0.0622959
5.03	-0.029257
5.04	-0.0323666
5.05	-0.0652855
5.06	-0.003542
5.07	-0.0663708
5.08	-0.0233454
5.09	-0.0221311
5.1	-0.0604402
5.11	-0.0116691
5.12	-0.0797698
5.13	-0.0267685
5.14	-0.0209137
5.15	-0.0422681
5.16	0.0305781
5.17	-0.0221739
5.18	0.0484639
5.19	0.0637417
5.2	0.0200531
5.21	0.0498178
5.22	-0.046192
5.23	-0.0288371
5.24	-0.0595204
5.25	-0.102249
5.26	-0.0394985
5.27	-0.0379868
5.28	0.191815
5.29	0.37506
5.3	0.310936
5.31	0.12008
5.32	-0.149048
5.33	-0.143751
5.34	-0.108332
5.35	-0.098213
5.36	-0.0247295
5.37	-0.0716978
5.38	-0.0144725
5.39	-0.0307551
5.4	-0.0578128
5.41	0.000197611
5.42	-0.0582584
5.43	-0.00201545
5.44	-0.00809664
5.45	-0.023102
5.46	0.0563529
5.47	0.142165
5.48	0.19906
5.49	0.151086
5.5	0.0749606
5.51	0.149297
5.52	0.120674
5.53	0.174983
5.54	0.184826
5.55	0.124654
5.56	0.166269
5.57	0.0717661
5.58	0.0658618
5.59	0.0401718
5.6	-0.0287437
5.61	0.0108299
5.62	-0.0609074
5.63	-0.0347262
5.64	-0.0384491
5.65	-0.0784903
5.66	-0.0147233
5.67	-0.0710459
5.68	-0.0358678
5.69	-0.0421187
5.7	-0.0877267
5.71	-0.0240667
5.72	-0.085262
5.73	-0.0553518
5.74	-0.0507672
5.75	-0.0774003
5.76	-0.00207351
5.77	-0.0626181
5.78	-0.0315783
5.79	-0.0389696
5.8	-0.080737
5.81	-0.0146218
5.82	-0.0749338
5.83	-0.0355005
5.84	-0.0376405
5.85	-0.084195
5.86	-0.0323482
5.87	-0.0965179
5.88	-0.0551476
5.89	-0.0626927
5.9	-0.104032
5.91	-0.0394353
5.92	-0.0972617
5.93	-0.0475736
5.94	-0.0466131
5.95	-0.0821853
5.96	-0.0209008
5.97	-0.0918154
5.98	-0.059216
5.99	-0.0639936
6	-0.0983843
6.01	-0.0358929
6.02	-0.0865522
6.03	-0.0204995
6.04	-0.00225725
6.05	-0.0211125
6.06	0.0504442
6.07	-0.00371492
6.08	0.0395384
6.09	0.0226441
6.1	-0.0288441
6.11	0.00572411
6.12	-0.0892392
6.13	-0.0590752
6.14	-0.064392
6.15	-0.0730479
6.16	0.102028
6.17	0.259422
6.18	0.42187
6.19	0.24357
6.2	-0.0568038
6.21	-0.122256
6.22	-0.161675
6.23	-0.0613418
6.24	-0.0442601
6.25	-0.0583709
6.26	0.00100488
6.27	-0.0648768
6.28	-0.0110966
6.29	-0.0173882
6.3	-0.039333
6.31	0.0279235
6.32	-0.0241131
6.33	0.0370959
6.34	0.0350293
6.35	0.0173473
6.36	0.00349067
6.37	-0.0432642
6.38	0.0752564
6.39	0.163453
6.4	0.164359
6.41	0.257818
6.42	0.208773
6.43	0.22951
6.44	0.208613
6.45	0.120047
6.46	0.146066
6.47	0.0556909
6.48	0.054245
6.49	0.0367436
6.5	-0.0255562
6.51	0.023852
6.52	-0.0458938
6.53	-0.0205718
6.54	-0.0155997
6.55	-0.0539552
6.56	0.00824075
6.57	-0.0559657
6.58	-0.0244738
6.59	-0.0166804
6.6	-0.0590596
6.61	-0.00141634
6.62	-0.0669205
6.63	-0.033772
6.64	-0.0242412
6.65	-0.0603512
6.66	0.00417044
6.67	-0.051081
6.68	-0.0126433
6.69	-0.013437
6.7	-0.059261
6.71	0.00753328
6.72	-0.0568195
6.73	-0.0279639
6.74	-0.0316164
6.75	-0.075286
6.76	-0.0113949
6.77	-0.0699282
6.78	-0.0324939
6.79	-0.0342435
6.8	-0.0647513
6.81	-0.00181067
6.82	-0.0663288
6.83	-0.0307298
6.84	-0.0402278
6.85	-0.0859783
6.86	-0.0180243
6.87	-0.0698659
6.88	-0.0238843
6.89	-0.0305079
6.9	-0.0693688
6.91	-0.00777575
6.92	-0.0650728
6.93	-0.0204185
6.94	-0.0281982
6.95	-0.0531794
6.96	0.0418599
6.97	0.00501522
6.98	0.0531578
6.99	0.0474511
7	0.00925497
7.01	0.0584789
7.02	-0.0339645
7.03	-0.0239221
7.04	-0.0524137
7.05	-0.0910173
7.06	-0.0279649
7.07	-0.0327217
7.08	0.19394
7.09	0.385186
7.1	0.31042
7.11	0.103443
7.12	-0.167654
7.13	-0.145489
7.14	-0.0959799
7.15	-0.0897633
7.16	-0.012727
7.17	-0.0659864
7.18	-0.019724
7.19	-0.0302698
7.2	-0.0534736
7.21	0.0128918
7.22	-0.0433778
7.23	0.0133428
7.24	0.0105505
7.25	-0.0151326
7.26	-0.0573584
7.27	-0.118833
7.28	0.00534033
7.29	0.0990864
7.3	0.0990632
7.31	0.19488
7.32	0.159972
7.33	0.210344
7.34	0.232562
7.35	0.1718
7.36	0.198232
7.37	0.101309
7.38	0.0928211
7.39	0.0599397
7.4	-0.0155583
7.41	0.0283244
7.42	-0.046189
7.43	-0.0192101
7.44	-0.0146907
7.45	-0.0566998
7.46	0.0116625
7.47	-0.0503403
7.48	-0.0233622
7.49	-0.0237569
7.5	-0.0677067
7.51	0.000645132
7.52	-0.057584
7.53	-0.0249537
7.54	-0.0168399
7.55	-0.0500488
7.56	0.0129372
7.57	-0.0543095
7.58	-0.0194859
7.59	-0.0102062
7.6	-0.0472675
7.61	0.0137449
7.62	-0.0501299
7.63	-0.0224845
7.64	-0.0167338
7.65	-0.0530011
7.66	0.00851926
7.67	-0.055068
7.68	-0.0203773
7.69	-0.0244357
7.7	-0.0621631
7.71	0.00892238
7.72	-0.0560466
7.73	-0.0329754
7.74	-0.0382639
7.75	-0.065973
7.76	-0.000171637
7.77	-0.0673351
7.78	-0.0372662
7.79	-0.0355058
7.8	-0.0592377
7.81	0.00580642
7.82	-0.0639338
7.83	-0.0349452
7.84	-0.0463302
7.85	-0.0789661
7.86	-0.00970937
7.87	-0.0540859
7.88	0.0146616
7.89	0.0343651
7.9	0.0124967
7.91	0.0783111
7.92	0.00837225
7.93	0.0318604
7.94	-0.0104334
7.95	-0.081729
7.96	-0.0409837
7.97	-0.0974266
7.98	-0.0386906
7.99	0.00535288
8	0.137891
8.01	0.396544
8.02	0.307557
8.03	0.0924215
8.04	-0.131688
8.05	-0.190032
8.06	-0.0699476
8.07	-0.0910294
8.08	-0.0358761
8.09	-0.0436486
8.1	-0.0701519
8.11	-0.010163
8.12	-0.0670926
8.13	-0.00761081
8.14	-0.00702861
8.15	-0.0285816
8.16	0.046255
8.17	0.111739
8.18	0.147699
8.19	0.100767
8.2	0.0279329
8.21	0.113794
8.22	0.0918358
8.23	0.155446
8.24	0.199997
8.25	0.165312
8.26	0.223885
8.27	0.158335
8.28	0.164502
8.29	0.134993
8.3	0.0462642
8.31	0.0710892
8.32	-0.022117
8.33	-0.010314
8.34	-0.00606711
8.35	-0.0547681
8.36	0.000957424
8.37	-0.0703728
8.38	-0.0414511
8.39	-0.0305493
8.4	-0.0759579
8.41	-0.0138683
8.42	-0.0746696
8.43	-0.042158
8.44	-0.0371658
8.45	-0.0721526
8.46	-0.00515696
8.47	-0.0663183
8.48	-0.0335925
8.49	-0.0264148
8.5	-0.0656011
8.51	-0.00469728
8.52	-0.0644546
8.53	-0.034396
8.54	-0.0388607
8.55	-0.0882655
8.56	-0.0283521
8.57	-0.0815709
8.58	-0.0358528
8.59	-0.0280379
8.6	-0.0672623
8.61	-0.0111921
8.62	-0.0837727
8.63	-0.056206
8.64	-0.0565094
8.65	-0.0938224
8.66	-0.0189654
8.67	-0.069779
8.68	-0.0296524
8.69	-0.0365913
8.7	-0.0809601
8.71	-0.0210671
8.72	-0.0879571
8.73	-0.0563445
8.74	-0.0573447
8.75	-0.0861111
8.76	-0.0197581
8.77	-0.0786093
8.78	-0.0325356
8.79	-0.0296663
8.8	-0.0500836
8.81	0.0313721
8.82	-0.0127568
8.83	0.0415664
8.84	0.0388678
8.85	-0.00475314
8.86	0.0323054
8.87	-0.0644648
8.88	-0.0480044
8.89	-0.0689369
8.9	-0.110022
8.91	-0.0279528
8.92	0.0379741
8.93	0.300629
8.94	0.386448
8.95	0.171479
8.96	-0.0330561
8.97	-0.203491
8.98	-0.12543
8.99	-0.082651
9	-0.0874816
9.01	-0.0190819
9.02	-0.0752526
9.03	-0.023272
9.04	-0.0321353
9.05	-0.0609955
9.06	0.0157801
9.07	0.0990048
9.08	0.137953
9.09	0.0845031
9.1	-0.00716137
9.11	0.0549069
9.12	0.0196791
9.13	0.075789
9.14	0.112964
9.15	0.101739
9.16	0.196697
9.17	0.155084
9.18	0.190104
9.19	0.197526
9.2	0.133454
9.21	0.161165
9.22	0.0591497
9.23	0.0501243
9.24	0.0296607
9.25	-0.0325777
9.26	0.0226279
9.27	-0.0492501
9.28	-0.0228177
9.29	-0.0197307
9.3	-0.0751309
9.31	-0.02085
9.32	-0.0831981
9.33	-0.0516574
9.34	-0.0445109
9.35	-0.0836042
9.36	-0.00908784
9.37	-0.0637144
9.38	-0.0350961
9.39	-0.0247375
9.4	-0.0665891
9.41	-0.00647124
9.42	-0.0578467
9.43	-0.0188289
9.44	-0.0181308
9.45	-0.0600016
9.46	0.00243109
9.47	-0.0526042
9.48	-0.0163003
9.49	-0.0185822
9.5	-0.0596965
9.51	-0.0026981
9.52	-0.0773481
9.53	-0.0435816
9.54	-0.0379469
9.55	-0.0691335
9.56	-0.00261094
9.57	-0.0642081
9.58	-0.0271955
9.59	-0.0287288
9.6	-0.0757375
9.61	-0.0245011
9.62	-0.0852545
9.63	-0.0384515
9.64	-0.0341126
9.65	-0.069928
9.66	-0.00625661
9.67	-0.0732672
9.68	-0.0436797
9.69	-0.0459313
9.7	-0.0695435
9.71	0.00455476
9.72	-0.0437833
9.73	0.0222043
9.74	0.0488301
9.75	0.0257659
9.76	0.0762375
9.77	-0.0129991
9.78	-0.00399733
9.79	-0.0400845
9.8	-0.0885211
9.81	-0.0299699
9.82	-0.0862716
9.83	0.0193345
9.84	0.193333
9.85	0.334375
9.86	0.33564
9.87	0.0204493
9.88	-0.12593
9.89	-0.158046
9.9	-0.134089
9.91	-0.0295345
9.92	-0.0788168
9.93	-0.0306812
9.94	-0.0316441
9.95	-0.04977
9.96	0.0140478
9.97	-0.0762645
9.98	-0.161985
9.99	-0.115467
10	-0.0827788
10.01	0.0292398
10.02	-0.00297034
10.03	0.0465958
10.04	0.0874939
10.05	0.0572434
10.06	0.135566
10.07	0.10521
10.08	0.157943
10.09	0.190834
10.1	0.15064
10.11	0.202461
10.12	0.121319
10.13	0.12445
10.14	0.0875702
10.15	-0.00359282
10.16	0.045289
10.17	-0.0187023
10.18	-0.000237121
10.19	-0.0049102
10.2	-0.0595324
10.21	-0.000333315
10.22	-0.0638253
10.23	-0.0282819
10.24	-0.0153262
10.25	-0.0653104
10.26	-0.0103974
10.27	-0.0721866
10.28	-0.0321558
10.29	-0.026708
10.3	-0.0659106
10.31	0.0095118
10.32	-0.0412911
10.33	-0.00673616
10.34	-0.0115001
10.35	-0.0648193
10.36	0.00246188
10.37	-0.0519585
10.38	-0.0237438
10.39	-0.0169106
10.4	-0.0515471
10.41	0.00529367
10.42	-0.0611419
10.43	-0.0222499
10.44	-0.0179303
10.45	-0.0624468
10.46	-0.00405599
10.47	-0.0688724
10.48	-0.0325989
10.49	-0.0246411
10.5	-0.0607683
10.51	-0.00724845
10.52	-0.0722981
10.53	-0.0328513
10.54	-0.0298125
10.55	-0.0709044
10.56	-0.0100801
10.57	-0.0641076
10.58	-0.00625011
10.59	0.00654866
10.6	-0.0127736
10.61	0.0640397
10.62	0.014233
10.63	0.0576567
10.64	0.0385499
10.65	-0.0247862
10.66	0.0109751
10.67	-0.0722916
10.68	-0.046076
10.69	-0.064757
10.7	-0.0922274
10.71	0.0754381
10.72	0.228747
10.73	0.409072
10.74	0.267228
10.75	-0.0375231
10.76	-0.131485
10.77	-0.183873
10.78	-0.0815241
10.79	-0.0584081
10.8	-0.0799619
10.81	-0.0138913
10.82	-0.0686292
10.83	-0.0164558
10.84	-0.01833
10.85	-0.0414547
10.86	0.0213623
10.87	-0.0565926
10.88	-0.115942
10.89	-0.0682355
10.9	-0.0322593
10.91	0.0932672
10.92	0.063703
10.93	0.112387
10.94	0.15501
10.95	0.135785
10.96	0.227005
10.97	0.184168
10.98	0.21345
10.99	0.212175
11	0.127757
11.01	0.145882
11.02	0.0438519
11.03	0.0323629
11.04	0.0128993
11.05	-0.0475259
11.06	0.0170408
11.07	-0.0396077
11.08	-0.0163645
11.09	-0.0183322
11.1	-0.0721147
11.11	-0.00831396
11.12	-0.0625468
11.13	-0.0340162
11.14	-0.0339989
11.15	-0.080964
11.16	-0.00992069
11.17	-0.0635727
11.18	-0.0250622
11.19	-0.0169699
11.2	-0.0615896
11.21	0.00751438
11.22	-0.0462489
11.23	-0.013291
11.24	-0.0116436
11.25	-0.0591983
11.26	-0.0024283
11.27	-0.0586282
11.28	-0.0146708
11.29	-0.0136921
11.3	-0.0624848
11.31	-0.00117946
11.32	-0.0690096
11.33	-0.0398985
11.34	-0.0363856
11.35	-0.0766095
11.36	-0.0146947
11.37	-0.069181
11.38	-0.0316405
11.39	-0.0322745
11.4	-0.068818
11.41	-0.00418821
11.42	-0.0739512
11.43	-0.0443685
11.44	-0.0414915
11.45	-0.0823758
11.46	-0.0215118
11.47	-0.0851471
11.48	-0.0408558
11.49	-0.0221763
11.5	-0.0481508
11.51	0.0317804
11.52	-0.00758886
11.53	0.047997
11.54	0.0578545
11.55	0.0119856
11.56	0.0441347
11.57	-0.0489809
11.58	-0.0346526
11.59	-0.0568406
11.6	-0.0945343
11.61	-0.0276776
11.62	-0.0252119
11.63	0.208625
11.64	0.396737
11.65	0.299753
11.66	0.0823393
11.67	-0.175932
11.68	-0.14633
11.69	-0.102481
11.7	-0.0950982
11.71	-0.0141091
11.72	-0.0740472
11.73	-0.0287607
11.74	-0.0389759
11.75	-0.0727606
11.76	-0.00506893
11.77	-0.0637245
11.78	-0.00982917
11.79	0.00126305
11.8	0.0478907
11.81	0.145193
11.82	0.0608035
11.83	0.0694069
11.84	0.0979075
11.85	0.0772669
11.86	0.174536
11.87	0.146029
11.88	0.189801
11.89	0.21147
11.9	0.160552
11.91	0.1937
11.92	0.096461
11.93	0.0832982
11.94	0.0548179
11.95	-0.0242473
11.96	0.0206827
11.97	-0.0477227
11.98	-0.0239475
11.99	-0.0140721
12	-0.0687682
12.01	-0.00801879
12.02	-0.0637675
12.03	-0.0337022
12.04	-0.0210262
12.05	-0.0687868
12.06	-0.0096028
12.07	-0.0706414
12.08	-0.0364024
12.09	-0.0280802
12.1	-0.0757401
12.11	-0.00675628
12.12	-0.057741
12.13	-0.0169309
12.14	-0.00812732
12.15	-0.0590607
12.16	-0.00230139
12.17	-0.0614739
12.18	-0.0274626
12.19	-0.0211527
12.2	-0.0624158
12.21	-0.00130832
12.22	-0.0691275
12.23	-0.0366936
12.24	-0.0295388
12.25	-0.0719584
12.26	-0.00597293
12.27	-0.0577278
12.28	-0.0200522
12.29	-0.0224754
12.3	-0.0666859
12.31	-0.00530799
12.32	-0.0763412
12.33	-0.0432398
12.34	-0.0400401
12.35	-0.0729347
12.36	-0.00262327
12.37	-0.0608085
12.38	-0.0227586
12.39	-0.0229428
12.4	-0.0571699
12.41	0.0125154
12.42	-0.0376012
12.43	0.0198965
12.44	0.0433767
12.45	0.0247104
12.46	0.0927821
12.47	0.0179656
12.48	0.0242694
12.49	-0.0201238
12.5	-0.0844593
12.51	-0.0292584
12.52	-0.0896735
12.53	-0.0294188
12.54	0.0888838
12.55	0.278549
12.56	0.437765
12.57	0.183388
12.58	-0.0416216
12.59	-0.150498
12.6	-0.152511
12.61	-0.0357
12.62	-0.0776068
12.63	-0.0325692
12.64	-0.0301091
12.65	-0.0550961
12.66	0.00459966
12.67	-0.0560024
12.68	-0.0023144
12.69	0.00377332
12.7	-0.0209913
12.71	0.0461156
12.72	-0.00706985
12.73	0.0540859
12.74	-0.0120897
12.75	-0.118008
12.76	0.0338094
12.77	0.0808535
12.78	0.168973
12.79	0.219793
12.8	0.183633
12.81	0.243077
12.82	0.163636
12.83	0.149691
12.84	0.123
12.85	0.0375087
12.86	0.067282
12.87	-0.0187309
12.88	-0.0152862
12.89	-0.0122247
12.9	-0.0554809
12.91	0.0135785
12.92	-0.0473022
12.93	-0.0267874
12.94	-0.0237549
12.95	-0.0665809
12.96	-0.00341504
12.97	-0.068381
12.98	-0.0384857
12.99	-0.0229542
13	-0.0612983
13.01	0.00676991
13.02	-0.0522623
13.03	-0.0214063
13.04	-0.0113308
13.05	-0.0530992
13.06	0.0145717
13.07	-0.0493978
13.08	-0.0283171
13.09	-0.0224811
13.1	-0.0591941
13.11	0.00714812
13.12	-0.0589376
13.13	-0.0286958
13.14	-0.0166962
13.15	-0.0611934
13.16	-0.00971364
13.17	-0.0751203
13.18	-0.0375992
13.19	-0.0344529
13.2	-0.0699968
13.21	0.00134838
13.22	-0.0599025
13.23	-0.0345337
13.24	-0.0379708
13.25	-0.0794533
13.26	-0.0183248
13.27	-0.0746857
13.28	-0.0319559
13.29	-0.0299807
13.3	-0.0670319
13.31	-0.00383756
13.32	-0.0664344
13.33	-0.0198245
13.34	-0.00419617
13.35	-0.0245705
13.36	0.0556843
13.37	0.0158408
13.38	0.0724503
13.39	0.0590694
13.4	-0.0110463
13.41	0.0245445
13.42	-0.0599259
13.43	-0.0371509
13.44	-0.0398961
13.45	-0.0659924
13.46	0.0583589
13.47	0.17613
13.48	0.382996
13.49	0.308798
13.5	0.0172548
13.51	-0.107306
13.52	-0.183405
13.53	-0.0802043
13.54	-0.0396138
13.55	-0.054637
13.56	0.0100361
13.57	-0.0532847
13.58	-0.00414423
13.59	-0.0122991
13.6	-0.0501557
13.61	0.0174355
13.62	-0.0261858
13.63	0.0267348
13.64	0.0274934
13.65	0.00927506
13.66	0.079685
13.67	0.0034405
13.68	-0.0649402
13.69	0.001147
13.7	0.0637092
13.71	0.206401
13.72	0.179389
13.73	0.200797
13.74	0.191941
13.75	0.118348
13.76	0.14366
13.77	0.0420727
13.78	0.0407054
13.79	0.0319593
13.8	-0.0329078
13.81	0.0264121
13.82	-0.0402538
13.83	-0.0250905
13.84	-0.0185331
13.85	-0.0772214
13.86	-0.0171236
13.87	-0.0623554
13.88	-0.0237735
13.89	-0.0162356
13.9	-0.0756338
13.91	-0.0103013
13.92	-0.0651904
13.93	-0.036106
13.94	-0.0188955
13.95	-0.0541023
13.96	0.0126807
13.97	-0.0458979
13.98	-0.0157612
13.99	-0.00269429
14	-0.035612
14.01	0.0230298
14.02	-0.0428716
14.03	-0.0115982
14.04	0.000131782
14.05	-0.0450875
14.06	0.0132154
14.07	-0.0456703
14.08	-0.0115983
14.09	-0.00692682
14.1	-0.0558052
14.11	-0.00173732
14.12	-0.063684
14.13	-0.0292773
14.14	-0.0354288
14.15	-0.0768078
14.16	-0.00539591
14.17	-0.0636904
14.18	-0.0287858
14.19	-0.0318938
14.2	-0.0727594
14.21	0.00371664
14.22	-0.0393319
14.23	0.0139969
14.24	0.0367577
14.25	0.0107786
14.26	0.0775527
14.27	0.00775826
14.28	0.0140205
14.29	-0.0122949
14.3	-0.0692995
14.31	-0.0282631
14.32	-0.0928577
14.33	-0.0425315
14.34	0.0383384
14.35	0.206756
14.36	0.432955
14.37	0.266626
14.38	0.034022
14.39	-0.139299
14.4	-0.183063
14.41	-0.0649075
14.42	-0.090438
14.43	-0.0382816
14.44	-0.0400488
14.45	-0.0759111
14.46	-0.0102477
14.47	-0.067886
14.48	-0.0222711
14.49	-0.0272502
14.5	-0.0505955
14.51	0.0276055
14.52	-0.0224194
14.53	0.0315866
14.54	0.0360381
14.55	0.0242802
14.56	0.118037
14.57	0.0814273
14.58	0.14877
14.59	0.163091
14.6	0.155475
14.61	0.124838
14.62	0.0242504
14.63	0.0705385
14.64	0.0993605
14.65	0.0304614
14.66	0.0609723
14.67	-0.0275914
14.68	-0.0238571
14.69	-0.0209368
14.7	-0.0729704
14.71	-0.0149417
14.72	-0.0798201
14.73	-0.0523971
14.74	-0.0389689
14.75	-0.0898213
14.76	-0.0217472
14.77	-0.0742247
14.78	-0.0465943
14.79	-0.0403908
14.8	-0.0871605
14.81	-0.009097
14.82	-0.0610191
14.83	-0.0413241
14.84	-0.0321148
14.85	-0.063442
14.86	0.009449
14.87	-0.0558723
14.88	-0.0316922
14.89	-0.0168237
14.9	-0.0632783
14.91	-0.0082998
14.92	-0.0659074
14.93	-0.0417163
14.94	-0.0403665
14.95	-0.0734933
14.96	0.00330684
14.97	-0.0507705
14.98	-0.0275312
14.99	-0.0251451
15	-0.0713153
15.01	-0.0116931
15.02	-0.0695129
15.03	-0.0386178
15.04	-0.0357346
15.05	-0.0738794
15.06	-0.00563069
15.07	-0.0656007
15.08	-0.0295148
15.09	-0.0229191
15.1	-0.0656525
15.11	0.00361519
15.12	-0.0456074
15.13	0.00632485
15.14	0.0359732
15.15	0.0186396
15.16	0.0867946
15.17	0.0145802
15.18	0.0287475
15.19	0.00362023
15.2	-0.0628194
15.21	-0.02298
15.22	-0.0902296
15.23	-0.0428058
15.24	0.00995965
15.25	0.150781
15.26	0.426546
15.27	0.336211
15.28	0.110441
15.29	-0.104969
15.3	-0.181597
15.31	-0.0734324
15.32	-0.0996855
15.33	-0.0415711
15.34	-0.0258843
15.35	-0.0582062
15.36	-0.00149002
15.37	-0.0624173
15.38	-0.0138137
15.39	-0.0135958
15.4	-0.0440699
15.41	0.0287063
15.42	-0.0184333
15.43	0.0320285
15.44	0.0371143
15.45	0.0238682
15.46	0.119284
15.47	0.089572
15.48	0.160717
15.49	0.180471
15.5	0.167726
15.51	0.237879
15.52	0.156027
15.53	0.101289
15.54	0.106782
15.55	0.041999
15.56	0.0763806
15.57	-0.00732535
15.58	-8.10358e-05
15.59	0.00267131
15.6	-0.0640804
15.61	-0.00417841
15.62	-0.0568629
15.63	-0.034138
15.64	-0.024334
15.65	-0.08031
15.66	-0.014873
15.67	-0.0638104
15.68	-0.0352709
15.69	-0.0244405
15.7	-0.0706699
15.71	-0.00433182
15.72	-0.0608163
15.73	-0.0314893
15.74	-0.0174075
15.75	-0.0601947
15.76	0.00420063
15.77	-0.0584515
15.78	-0.022277
15.79	-0.00626351
15.8	-0.0484144
15.81	0.0160551
15.82	-0.0464929
15.83	-0.0264326
15.84	-0.0218184
15.85	-0.0661768
15.86	-0.00901009
15.87	-0.0701351
15.88	-0.0293815
15.89	-0.0189698
15.9	-0.0687812
15.91	-0.004093
15.92	-0.0605363
15.93	-0.0276766
15.94	-0.0250524
15.95	-0.074329
15.96	-0.01556
15.97	-0.0741023
15.98	-0.0358093
15.99	-0.0369833
16	-0.0769502
16.01	-0.0023527
16.02	-0.0623597
16.03	-0.0299233
16.04	-0.0208264
16.05	-0.049818
16.06	0.0350738
16.07	-0.0106563
16.08	0.031551
16.09	0.0454572
16.1	0.00368139
16.11	0.0367413
16.12	-0.0630235
16.13	-0.0461569
16.14	-0.0525151
16.15	-0.100243
16.16	-0.0277126
16.17	-0.00198984
16.18	0.238794
16.19	0.393112
16.2	0.242621
16.21	0.0295452
16.22	-0.193828
16.23	-0.143748
16.24	-0.0921926
16.25	-0.0998519
16.26	-0.0264011
16.27	-0.0854601
16.28	-0.0480265
16.29	-0.050002
16.3	-0.0813896
16.31	-0.0116831
16.32	-0.0638725
16.33	-0.0145559
16.34	-0.00752517
16.35	-0.0288717
16.36	0.052912
16.37	0.00559987
16.38	0.0545723
16.39	0.0697923
16.4	0.0726482
16.41	0.174872
16.42	0.142353
16.43	0.201692
16.44	0.194744
16.45	0.148424
16.46	0.193282
16.47	0.222426
16.48	0.200859
16.49	0.103225
16.5	-0.0271441
16.51	0.00854502
16.52	-0.0509446
16.53	-0.030095
16.54	-0.0222033
16.55	-0.0772744
16.56	-0.0122597
16.57	-0.0622267
16.58	-0.0348889
16.59	-0.0236722
16.6	-0.0713052
16.61	-0.00325723
16.62	-0.063018
16.63	-0.0410996
16.64	-0.0232528
16.65	-0.0605188
16.66	0.00458521
16.67	-0.053302
16.68	-0.0210004
16.69	0.000400846
16.7	-0.0468284
16.71	0.00479537
16.72	-0.0604838
16.73	-0.0304313
16.74	-0.0146673
16.75	-0.056307
16.76	0.00120985
16.77	-0.060083
16.78	-0.0355106
16.79	-0.0335998
16.8	-0.0795788
16.81	-0.0150171
16.82	-0.0710157
16.83	-0.0388654
16.84	-0.032659
16.85	-0.0817832
16.86	-0.022
16.87	-0.0828844
16.88	-0.0541953
16.89	-0.0409813
16.9	-0.0797441
16.91	-0.0247554
16.92	-0.0815947
16.93	-0.0439845
16.94	-0.0412908
16.95	-0.0803649
16.96	-0.0120353
16.97	-0.0643002
16.98	-0.0205778
16.99	0.00762794
17	0.00109132
17.01	0.0782379
17.02	0.0206093
17.03	0.0417134
17.04	0.0149408
17.05	-0.0520938
17.06	-0.0105989
17.07	-0.0830873
17.08	-0.0529975
17.09	-0.0387463
17.1	6.29271e-05
17.11	0.249739
17.12	0.3652
17.13	0.325124
17.14	0.0526753
17.15	-0.162109
17.16	-0.114945
17.17	-0.118184
17.18	-0.0308266
17.19	-0.023609
17.2	-0.0615226
17.21	0.000331881
17.22	-0.056536
17.23	-0.00949697
17.24	-0.00214681
17.25	-0.0277706
17.26	0.0283111
17.27	-0.0291171
17.28	0.0321918
17.29	0.0512764
17.3	0.0307929
17.31	0.100721
17.32	0.0663563
17.33	0.142627
17.34	0.167555
17.35	0.158029
17.36	0.231083
17.37	0.172501
17.38	0.209394
17.39	0.18351
17.4	0.106848
17.41	0.0100279
17.42	-0.100137
17.43	-0.0390054
17.44	0.00686473
17.45	-0.0385595
17.46	0.0195771
17.47	-0.0400275
17.48	-0.0277261
17.49	-0.00834392
17.5	-0.0436406
17.51	0.0219018
17.52	-0.040248
17.53	-0.0222241
17.54	-0.0122224
17.55	-0.055296
17.56	0.0109968
17.57	-0.045197
17.58	-0.0194259
17.59	-0.00702724
17.6	-0.0426463
17.61	0.0242182
17.62	-0.0388526
17.63	-0.0132819
17.64	-0.0051206
17.65	-0.0514382
17.66	0.0186305
17.67	-0.0360467
17.68	-0.0153078
17.69	-0.0135351
17.7	-0.0537036
17.71	0.00625373
17.72	-0.0563694
17.73	-0.0277762
17.74	-0.0257151
17.75	-0.0708264
17.76	-0.00247777
17.77	-0.0605729
17.78	-0.034104
17.79	-0.027587
17.8	-0.06246
17.81	-0.0145391
17.82	-0.0924665
17.83	-0.0649507
17.84	-0.0555954
17.85	-0.0911548
17.86	-0.025383
17.87	-0.071834
17.88	-0.0281248
17.89	-0.0188959
17.9	-0.0550357
17.91	0.011177
17.92	-0.0380951
17.93	0.0144218
17.94	0.0397509
17.95	0.0201885
17.96	0.0863332
17.97	0.0125847
17.98	0.0174843
17.99	-0.0161774
18	-0.0778184
18.01	-0.0347343
18.02	-0.103572
18.03	-0.0475502
18.04	0.049961
18.05	0.219348
18.06	0.425918
18.07	0.241927
18.08	0.010669
18.09	-0.141652
18.1	-0.172538
18.11	-0.0637507
18.12	-0.095313
18.13	-0.041244
18.14	-0.0342176
18.15	-0.0631977
18.16	0.00255976
18.17	-0.0570642
18.18	-0.0191684
18.19	-0.0237148
18.2	-0.0508623
18.21	0.0167897
18.22	-0.0311077
18.23	0.0290015
18.24	0.0483624
18.25	0.0391778
18.26	0.113965
18.27	0.0772904
18.28	0.157798
18.29	0.177447
18.3	0.161328
18.31	0.230452
18.32	0.163925
18.33	0.185458
18.34	0.135604
18.35	0.0512746
18.36	0.0329009
18.37	-0.00386124
18.38	0.0214799
18.39	0.0198829
18.4	-0.0460013
18.41	0.00669174
18.42	-0.0517107
18.43	-0.0301126
18.44	-0.0247733
18.45	-0.0735968
18.46	-0.0102557
18.47	-0.065002
18.48	-0.0340857
18.49	-0.0219384
18.5	-0.0754749
18.51	-0.00949465
18.52	-0.0546695
18.53	-0.0213264
18.54	-0.00715676
18.55	-0.0473473
18.56	0.0155271
18.57	-0.0525367
18.58	-0.0266555
18.59	-0.00968642
18.6	-0.0487522
18.61	0.00934878
18.62	-0.0504171
18.63	-0.0260879
18.64	-0.0242698
18.65	-0.0684208
18.66	-0.00249812
18.67	-0.0604621
18.68	-0.0338879
18.69	-0.0256419
18.7	-0.0616421
18.71	0.00906696
18.72	-0.0536731
18.73	-0.0319417
18.74	-0.0297608
18.75	-0.0755347
18.76	-0.0158455
18.77	-0.0765231
18.78	-0.0458548
18.79	-0.0338648
18.8	-0.0698086
18.81	-0.00584004
18.82	-0.0602026
18.83	-0.0164779
18.84	-0.00191464
18.85	-0.0241999
18.86	0.057367
18.87	0.0160994
18.88	0.0636696
18.89	0.0570827
18.9	-0.00672277
18.91	0.0258216
18.92	-0.0596995
18.93	-0.0381781
18.94	-0.0417982
18.95	-0.0831909
18.96	0.0211943
18.97	0.12381
18.98	0.363872
18.99	0.36288
19	0.0901548
19.01	-0.0737416
19.02	-0.189744
19.03	-0.10917
19.04	-0.0585993
19.05	-0.0749167
19.06	-0.00968306
19.07	-0.0682665
19.08	-0.0227413
19.09	-0.013339
19.1	-0.0453542
19.11	0.0222824
19.12	-0.0307007
19.13	0.0148791
19.14	0.00923541
19.15	-0.0163498
19.16	0.063197
19.17	0.0232741
19.18	0.0857018
19.19	0.105172
19.2	0.100985
19.21	0.185345
19.22	0.141942
19.23	0.191993
19.24	0.182454
19.25	0.133016
19.26	0.153799
19.27	0.0546583
19.28	0.0697012
19.29	0.0327787
19.3	-0.0269771
19.31	0.00674891
19.32	-0.068463
19.33	-0.128851
19.34	-0.111586
19.35	-0.111968
19.36	-0.0193844
19.37	-0.0667157
19.38	-0.0455956
19.39	-0.0373547
19.4	-0.0819639
19.41	-0.0186378
19.42	-0.0651838
19.43	-0.0285707
19.44	-0.0141046
19.45	-0.0599951
19.46	0.00191752
19.47	-0.0533818
19.48	-0.0247565
19.49	-0.0175249
19.5	-0.0589118
19.51	0.00694542
19.52	-0.057141
19.53	-0.0325722
19.54	-0.0186507
19.55	-0.0670953
19.56	-0.0138508
19.57	-0.07887
19.58	-0.0449657
19.59	-0.0235813
19.6	-0.0635808
19.61	-0.0101156
19.62	-0.0661102
19.63	-0.0316049
19.64	-0.03019
19.65	-0.0757286
19.66	-0.0118615
19.67	-0.0730956
19.68	-0.0503001
19.69	-0.0416289
19.7	-0.0809215
